Incident energy ; 
Incident energy ; 
Incident energy ; σ(E)
1.0E-5 ; 54.1874
1.0625E-5 ; 52.57634
1.125E-5 ; 51.10167
1.1875E-5 ; 49.74518
1.25E-5 ; 48.49191
1.375E-5 ; 46.24724
1.5E-5 ; 44.28987
1.625E-5 ; 42.56338
1.75E-5 ; 41.02575
1.875E-5 ; 39.64493
2.0E-5 ; 38.396
2.1875E-5 ; 36.72788
2.375E-5 ; 35.262
2.5625E-5 ; 33.96061
2.75E-5 ; 32.79515
2.9375E-5 ; 31.74356
3.125E-5 ; 30.78846
3.3125E-5 ; 29.91598
3.5E-5 ; 29.11491
3.75E-5 ; 28.14219
4.0E-5 ; 27.26261
4.25E-5 ; 26.46225
4.625E-5 ; 25.38637
5.0E-5 ; 24.43466
5.3125E-5 ; 23.72032
5.625E-5 ; 23.06679
5.9375E-5 ; 22.46596
6.25E-5 ; 21.91112
6.875E-5 ; 20.91814
7.5E-5 ; 20.05315
8.0E-5 ; 19.43616
8.75E-5 ; 18.61287
9.375E-5 ; 18.00454
1.0E-4 ; 17.45488
1.0625E-4 ; 16.95511
1.125E-4 ; 16.49817
1.1875E-4 ; 16.07833
1.25E-4 ; 15.69089
1.375E-4 ; 14.99814
1.5E-4 ; 14.39545
1.625E-4 ; 13.86506
1.75E-4 ; 13.39376
1.875E-4 ; 12.97149
2.0E-4 ; 12.59042
2.1875E-4 ; 12.08288
2.375E-4 ; 11.63838
2.5625E-4 ; 11.24509
2.75E-4 ; 10.89406
2.9375E-4 ; 10.57838
3.125E-4 ; 10.29263
3.3125E-4 ; 10.03247
3.5E-4 ; 9.794385
3.75E-4 ; 9.506397
4.0E-4 ; 9.247123
4.25E-4 ; 9.012227
4.625E-4 ; 8.698169
5.0E-4 ; 8.422149
5.3125E-4 ; 8.216194
5.625E-4 ; 8.028772
5.9375E-4 ; 7.857371
6.25E-4 ; 7.699923
6.875E-4 ; 7.420313
7.5E-4 ; 7.179246
8.0E-4 ; 7.008879
8.75E-4 ; 6.783813
9.375E-4 ; 6.619335
0.001 ; 6.472178
0.0010625 ; 6.339673
0.001125 ; 6.219684
0.0011875 ; 6.110482
0.00125 ; 6.010646
0.001375 ; 5.834565
0.0015 ; 5.684124
0.001625 ; 5.554051
0.00175 ; 5.440448
0.001875 ; 5.340362
0.002 ; 5.251512
0.0021875 ; 5.135493
0.002375 ; 5.036212
0.0025625 ; 4.950311
0.00275 ; 4.875274
0.0029375 ; 4.80918
0.003125 ; 4.750537
0.0033125 ; 4.698164
0.0035 ; 4.651119
0.00375 ; 4.595381
0.004 ; 4.54633
0.00425 ; 4.502847
0.004625 ; 4.446173
0.005 ; 4.397787
0.0053125 ; 4.362573
0.005625 ; 4.331204
0.0059375 ; 4.303086
0.00625 ; 4.277746
0.006875 ; 4.233907
0.0075 ; 4.197321
0.008 ; 4.172146
0.00875 ; 4.139758
0.009375 ; 4.116715
0.01 ; 4.096548
0.010625 ; 4.078751
0.01125 ; 4.062929
0.011875 ; 4.048771
0.0125 ; 4.036029
0.01375 ; 4.014019
0.015 ; 3.995676
0.01625 ; 3.980155
0.0175 ; 3.966852
0.01875 ; 3.955322
0.02 ; 3.945233
0.021325 ; 3.935831
0.02265 ; 3.927528
0.023975 ; 3.920143
0.0253 ; 3.913532
0.02722969 ; 3.905054
0.02915938 ; 3.897699
0.03108907 ; 3.891256
0.03301875 ; 3.885567
0.03494844 ; 3.880505
0.03687813 ; 3.875974
0.0407375 ; 3.868199
0.04305313 ; 3.864203
0.04536875 ; 3.860615
0.05 ; 3.854436
0.0506 ; 3.853718
0.0520875 ; 3.85201
0.053575 ; 3.850396
0.05655 ; 3.847424
0.0625 ; 3.842329
0.06875 ; 3.837927
0.075 ; 3.834258
0.08125 ; 3.831154
0.0875 ; 3.828494
0.09375 ; 3.826188
0.1 ; 3.82417
0.10625 ; 3.822389
0.1125 ; 3.820807
0.11875 ; 3.819391
0.125 ; 3.818117
0.1375 ; 3.815916
0.15 ; 3.814081
0.1625 ; 3.812529
0.175 ; 3.811199
0.1875 ; 3.810046
0.2 ; 3.809037
0.21875 ; 3.80774
0.2375 ; 3.806647
0.25625 ; 3.805715
0.275 ; 3.80491
0.29375 ; 3.804207
0.3125 ; 3.803589
0.33125 ; 3.80304
0.35 ; 3.802551
0.375 ; 3.801974
0.4 ; 3.801469
0.425 ; 3.801024
0.5 ; 3.799956
0.625 ; 3.798746
0.75 ; 3.797938
0.8 ; 3.797686
0.875 ; 3.797361
1.0 ; 3.796929
1.25 ; 3.796323
1.5 ; 3.795919
1.75 ; 3.79563
2.0 ; 3.795413
2.375 ; 3.795173
2.75 ; 3.794999
3.125 ; 3.794866
3.5 ; 3.794761
4.0 ; 3.794652
4.25 ; 3.794607
5.0 ; 3.794498
6.25 ; 3.794374
7.5 ; 3.794291
8.0 ; 3.794265
8.75 ; 3.794231
10.0 ; 3.794185
12.5 ; 3.794118
15.0 ; 3.794073
17.5 ; 3.794038
20.0 ; 3.794011
23.75 ; 3.793979
27.5 ; 3.793953
35.0 ; 3.793912
40.0 ; 3.793891
42.5 ; 3.79388
50.0 ; 3.793853
62.5 ; 3.793812
75.0 ; 3.793776
87.5 ; 3.793743
100.0 ; 3.79371
125.0 ; 3.793648
150.0 ; 3.793588
175.0 ; 3.793529
200.0 ; 3.793471
275.0 ; 3.7933
300.0 ; 3.793243
350.0 ; 3.79313
425.0 ; 3.79296
500.0 ; 3.792792
625.0 ; 3.792511
700.0 ; 3.792343
750.0 ; 3.792231
875.0 ; 3.79195
900.0 ; 3.791895
1000.0 ; 3.791671
1100.0 ; 3.791448
1250.0 ; 3.791113
1500.0 ; 3.790556
1750.0 ; 3.789998
2000.0 ; 3.789441
2750.0 ; 3.787769
3500.0 ; 3.786097
4000.0 ; 3.784983
4250.0 ; 3.784426
5000.0 ; 3.782754
6250.0 ; 3.779982
7500.0 ; 3.777212
8750.0 ; 3.774441
10000.0 ; 3.77167
12500.0 ; 3.76618
15000.0 ; 3.760689
17500.0 ; 3.755199
20000.0 ; 3.749708
22500.0 ; 3.744288
25000.0 ; 3.738867
27500.0 ; 3.733447
30000.0 ; 3.728026
32500.0 ; 3.722677
35000.0 ; 3.717328
40000.0 ; 3.706629
45000.0 ; 3.696078
50000.0 ; 3.685526
55000.0 ; 3.675128
60000.0 ; 3.664729
65000.0 ; 3.654489
70000.0 ; 3.644248
75000.0 ; 3.634174
80000.0 ; 3.6241
90000.0 ; 3.604301
95000.0 ; 3.594587
100000.0 ; 3.584872
110000.0 ; 3.56605
115000.0 ; 3.556639
120000.0 ; 3.547229
130000.0 ; 3.529325
140000.0 ; 3.511423
150000.0 ; 3.494623
160000.0 ; 3.477825
180000.0 ; 3.446967
200000.0 ; 3.419633
220000.0 ; 3.397018
240000.0 ; 3.380985
250000.0 ; 3.377764
260000.0 ; 3.374556
280000.0 ; 3.382868
300000.0 ; 3.415153
320000.0 ; 3.489224
340000.0 ; 3.64273
360000.0 ; 3.965229
370000.0 ; 4.334726
380000.0 ; 4.70501
390000.0 ; 5.437963
395000.0 ; 5.976334
400000.0 ; 6.685746
405000.0 ; 7.625759
410000.0 ; 8.866674
415000.0 ; 10.46672
420000.0 ; 12.40438
425000.0 ; 14.44563
430000.0 ; 16.03514
434000.0 ; 16.52081
435000.0 ; 16.50317
440000.0 ; 15.63901
445000.0 ; 13.9143
450000.0 ; 11.97999
455000.0 ; 10.23792
460000.0 ; 8.816576
465000.0 ; 7.703701
470000.0 ; 6.842894
475000.0 ; 6.175586
480000.0 ; 5.653888
490000.0 ; 5.035261
500000.0 ; 4.417816
520000.0 ; 3.831302
540000.0 ; 3.503605
550000.0 ; 3.400167
560000.0 ; 3.296883
580000.0 ; 3.154131
600000.0 ; 3.048602
620000.0 ; 2.9665
640000.0 ; 2.900201
650000.0 ; 2.872743
660000.0 ; 2.845303
680000.0 ; 2.799233
700000.0 ; 2.760557
720000.0 ; 2.728649
740000.0 ; 2.703547
750000.0 ; 2.69475
760000.0 ; 2.685969
780000.0 ; 2.677462
800000.0 ; 2.680738
810000.0 ; 2.688115
820000.0 ; 2.700345
830000.0 ; 2.718479
840000.0 ; 2.743891
850000.0 ; 2.77839
860000.0 ; 2.824377
870000.0 ; 2.885065
880000.0 ; 2.964805
890000.0 ; 3.069527
900000.0 ; 3.207376
910000.0 ; 3.389549
920000.0 ; 3.631341
930000.0 ; 3.953094
940000.0 ; 4.380172
950000.0 ; 4.939355
960000.0 ; 5.646014
970000.0 ; 6.473822
980000.0 ; 7.308865
990000.0 ; 7.933726
1000000.0 ; 8.12579
1010000.0 ; 7.833751
1020000.0 ; 7.21435
1030000.0 ; 6.483934
1040000.0 ; 5.789787
1050000.0 ; 5.193295
1060000.0 ; 4.703783
1070000.0 ; 4.30911
1080000.0 ; 3.991807
1090000.0 ; 3.7355
1100000.0 ; 3.526734
1110000.0 ; 3.355038
1120000.0 ; 3.212449
1130000.0 ; 3.092975
1140000.0 ; 2.99212
1150000.0 ; 2.906541
1160000.0 ; 2.833779
1170000.0 ; 2.77209
1180000.0 ; 2.720344
1190000.0 ; 2.677988
1200000.0 ; 2.645089
1210000.0 ; 2.622488
1220000.0 ; 2.612117
1230000.0 ; 2.617624
1240000.0 ; 2.645609
1250000.0 ; 2.708045
1260000.0 ; 2.827573
1265000.0 ; 2.92127
1270000.0 ; 3.048648
1275000.0 ; 3.222501
1280000.0 ; 3.460822
1285000.0 ; 3.787765
1290000.0 ; 4.231752
1295000.0 ; 4.813993
1300000.0 ; 5.514492
1305000.0 ; 6.212376
1307500.0 ; 6.48081
1310000.0 ; 6.654153
1313000.0 ; 6.71468
1316500.0 ; 6.54568
1320000.0 ; 6.198178
1330000.0 ; 4.918083
1335000.0 ; 4.3785
1340000.0 ; 3.950916
1345000.0 ; 3.61938
1350000.0 ; 3.36261
1360000.0 ; 3.002601
1370000.0 ; 2.76983
1380000.0 ; 2.610235
1390000.0 ; 2.494812
1400000.0 ; 2.407424
1410000.0 ; 2.338643
1420000.0 ; 2.282709
1430000.0 ; 2.235948
1440000.0 ; 2.195935
1450000.0 ; 2.161014
1460000.0 ; 2.130023
1470000.0 ; 2.102129
1480000.0 ; 2.076717
1490000.0 ; 2.053328
1500000.0 ; 2.031614
1510000.0 ; 2.011307
1520000.0 ; 1.992201
1530000.0 ; 1.974136
1540000.0 ; 1.95699
1550000.0 ; 1.940683
1560000.0 ; 1.925168
1570000.0 ; 1.910451
1580000.0 ; 1.896614
1590000.0 ; 1.883885
1600000.0 ; 1.872806
1602000.0 ; 1.870882
1610000.0 ; 1.864763
1620000.0 ; 1.863837
1630000.0 ; 1.886273
1635000.0 ; 1.929639
1637500.0 ; 1.974191
1640000.0 ; 2.05315
1641063.0 ; 2.108162
1641594.0 ; 2.144798
1641860.0 ; 2.16324
1642125.0 ; 2.185056
1643188.0 ; 2.296138
1643719.0 ; 2.370629
1643985.0 ; 2.409528
1644250.0 ; 2.463093
1644782.0 ; 2.575968
1645313.0 ; 2.727958
1645844.0 ; 2.907407
1645977.0 ; 2.955185
1646110.0 ; 3.014493
1646375.0 ; 3.144784
1646907.0 ; 3.470647
1647438.0 ; 3.911136
1647969.0 ; 4.512627
1648102.0 ; 4.700942
1648235.0 ; 4.905312
1648500.0 ; 5.32699
1648875.0 ; 6.055735
1649250.0 ; 6.870958
1649625.0 ; 7.694832
1649813.0 ; 8.079294
1650000.0 ; 8.429067
1650125.0 ; 8.574968
1650250.0 ; 8.691074
1650500.0 ; 8.872211
1650969.0 ; 8.54917
1651438.0 ; 7.682927
1651907.0 ; 6.638529
1652141.0 ; 6.142497
1652375.0 ; 5.671999
1652844.0 ; 4.874406
1653079.0 ; 4.53422
1653313.0 ; 4.252209
1653548.0 ; 3.988824
1653782.0 ; 3.77632
1653899.0 ; 3.672559
1654016.0 ; 3.578578
1654250.0 ; 3.433773
1654719.0 ; 3.156711
1654954.0 ; 3.020669
1655188.0 ; 2.924736
1655657.0 ; 2.760053
1655891.0 ; 2.678178
1656008.0 ; 2.641126
1656125.0 ; 2.612118
1656594.0 ; 2.508099
1657063.0 ; 2.409487
1658000.0 ; 2.272156
1659000.0 ; 2.169114
1660000.0 ; 2.09468
1662500.0 ; 1.97968
1665000.0 ; 1.914691
1670000.0 ; 1.847875
1680000.0 ; 1.792621
1681250.0 ; 1.788534
1681875.0 ; 1.786623
1682032.0 ; 1.786155
1682188.0 ; 1.785715
1682500.0 ; 1.784843
1683750.0 ; 1.781587
1683907.0 ; 1.781199
1683985.0 ; 1.781014
1684063.0 ; 1.780843
1684375.0 ; 1.780208
1685000.0 ; 1.778968
1685513.0 ; 1.778346
1685769.0 ; 1.778048
1685897.0 ; 1.777905
1685961.0 ; 1.777856
1686025.0 ; 1.777851
1686154.0 ; 1.777958
1686282.0 ; 1.778105
1686538.0 ; 1.7784
1686794.0 ; 1.778697
1686922.0 ; 1.778903
1686986.0 ; 1.779166
1687050.0 ; 1.779653
1687115.0 ; 1.780336
1687179.0 ; 1.781088
1687307.0 ; 1.782624
1687563.0 ; 1.785702
1687819.0 ; 1.788823
1687851.0 ; 1.789318
1687883.0 ; 1.790013
1687915.0 ; 1.791138
1687931.0 ; 1.791964
1687947.0 ; 1.79303
1687963.0 ; 1.794384
1687979.0 ; 1.796067
1687995.0 ; 1.798106
1688011.0 ; 1.800517
1688027.0 ; 1.803297
1688043.0 ; 1.806424
1688075.0 ; 1.813577
1688108.0 ; 1.821878
1688140.0 ; 1.830455
1688204.0 ; 1.848217
1688332.0 ; 1.884119
1688588.0 ; 1.955955
1688652.0 ; 1.973914
1688684.0 ; 1.982894
1688716.0 ; 1.991874
1688732.0 ; 1.996367
1688748.0 ; 2.000862
1688764.0 ; 2.005364
1688780.0 ; 2.009881
1688796.0 ; 2.014427
1688812.0 ; 2.019027
1688828.0 ; 2.023727
1688844.0 ; 2.028599
1688852.0 ; 2.031135
1688860.0 ; 2.03376
1688868.0 ; 2.0365
1688876.0 ; 2.039382
1688884.0 ; 2.042438
1688892.0 ; 2.045708
1688900.0 ; 2.049236
1688908.0 ; 2.053072
1688916.0 ; 2.057275
1688924.0 ; 2.061908
1688940.0 ; 2.072755
1688956.0 ; 2.086266
1688972.0 ; 2.103199
1688988.0 ; 2.124422
1689004.0 ; 2.150916
1689036.0 ; 2.224324
1689052.0 ; 2.273986
1689068.0 ; 2.334513
1689084.0 ; 2.407941
1689100.0 ; 2.49662
1689114.0 ; 2.588787
1689128.0 ; 2.6965
1689142.0 ; 2.821583
1689155.0 ; 2.954691
1689183.0 ; 3.30056
1689210.0 ; 3.708001
1689238.0 ; 4.184792
1689252.0 ; 4.429369
1689265.0 ; 4.650352
1689279.0 ; 4.872459
1689293.0 ; 5.068056
1689307.0 ; 5.227235
1689320.0 ; 5.334861
1689330.0 ; 5.387819
1689340.0 ; 5.413031
1689354.0 ; 5.400416
1689368.0 ; 5.332763
1689382.0 ; 5.21399
1689395.0 ; 5.063741
1689409.0 ; 4.867117
1689423.0 ; 4.644122
1689437.0 ; 4.405095
1689450.0 ; 4.177446
1689464.0 ; 3.934456
1689478.0 ; 3.700826
1689505.0 ; 3.295562
1689533.0 ; 2.954872
1689560.0 ; 2.705018
1689588.0 ; 2.517022
1689615.0 ; 2.389638
1689643.0 ; 2.297865
1689670.0 ; 2.235482
1689780.0 ; 2.086161
1689890.0 ; 1.969164
1689918.0 ; 1.941794
1689945.0 ; 1.917639
1689973.0 ; 1.895857
1690000.0 ; 1.878714
1690020.0 ; 1.868637
1690040.0 ; 1.860717
1690060.0 ; 1.854729
1690079.0 ; 1.850537
1690099.0 ; 1.84735
1690118.0 ; 1.845171
1690157.0 ; 1.842244
1690313.0 ; 1.835281
1690625.0 ; 1.822239
1690782.0 ; 1.815676
1690860.0 ; 1.812416
1690938.0 ; 1.809155
1690977.0 ; 1.807525
1691016.0 ; 1.805895
1691055.0 ; 1.804265
1691094.0 ; 1.802635
1691250.0 ; 1.796114
1691875.0 ; 1.77004
1691954.0 ; 1.767139
1692032.0 ; 1.765256
1692110.0 ; 1.764437
1692188.0 ; 1.764069
1692500.0 ; 1.762902
1693750.0 ; 1.758248
1693907.0 ; 1.757668
1693985.0 ; 1.757404
1694063.0 ; 1.75718
1694375.0 ; 1.756439
1695000.0 ; 1.754974
1695625.0 ; 1.75351
1695938.0 ; 1.75278
1696250.0 ; 1.752129
1697500.0 ; 1.749612
1698125.0 ; 1.748372
1698750.0 ; 1.747205
1700000.0 ; 1.744875
1705000.0 ; 1.736231
1710000.0 ; 1.728146
1720000.0 ; 1.712932
1730000.0 ; 1.698325
1740000.0 ; 1.683868
1750000.0 ; 1.669235
1760000.0 ; 1.654116
1770000.0 ; 1.638142
1780000.0 ; 1.620812
1790000.0 ; 1.601421
1800000.0 ; 1.579218
1810000.0 ; 1.555922
1814000.0 ; 1.550342
1820000.0 ; 1.571395
1822500.0 ; 1.618859
1823750.0 ; 1.665418
1825000.0 ; 1.740361
1826250.0 ; 1.870267
1826875.0 ; 1.960374
1827500.0 ; 2.088523
1828125.0 ; 2.241088
1828750.0 ; 2.451397
1829063.0 ; 2.568257
1829375.0 ; 2.721675
1830000.0 ; 3.03667
1831650.0 ; 4.122803
1832063.0 ; 4.378696
1832475.0 ; 4.538236
1832888.0 ; 4.694877
1833300.0 ; 4.754878
1834000.0 ; 4.655229
1835500.0 ; 4.06427
1837000.0 ; 3.453885
1837750.0 ; 3.217704
1838500.0 ; 3.01944
1839250.0 ; 2.852756
1840000.0 ; 2.715001
1841250.0 ; 2.541357
1842500.0 ; 2.411027
1845000.0 ; 2.23268
1847500.0 ; 2.123349
1850000.0 ; 2.050571
1855000.0 ; 1.968018
1860000.0 ; 1.931785
1862000.0 ; 1.925943
1870000.0 ; 1.943581
1875000.0 ; 1.991322
1880000.0 ; 2.075695
1884000.0 ; 2.181891
1887000.0 ; 2.292487
1890000.0 ; 2.430213
1900000.0 ; 3.035645
1903000.0 ; 3.146343
1906000.0 ; 3.16684
1908000.0 ; 3.118842
1910000.0 ; 3.033981
1915000.0 ; 2.745823
1920000.0 ; 2.466358
1925000.0 ; 2.251697
1930000.0 ; 2.094456
1935000.0 ; 1.982326
1940000.0 ; 1.899011
1950000.0 ; 1.788078
1960000.0 ; 1.717944
1970000.0 ; 1.669272
1980000.0 ; 1.632829
1990000.0 ; 1.603834
2000000.0 ; 1.579625
2020000.0 ; 1.539766
2040000.0 ; 1.506258
2060000.0 ; 1.475806
2080000.0 ; 1.446544
2100000.0 ; 1.417159
2120000.0 ; 1.386497
2140000.0 ; 1.353313
2160000.0 ; 1.316055
2180000.0 ; 1.272587
2200000.0 ; 1.2198
2210000.0 ; 1.188533
2220000.0 ; 1.153016
2230000.0 ; 1.112278
2240000.0 ; 1.065133
2250000.0 ; 1.010163
2260000.0 ; 0.9457272
2270000.0 ; 0.8700638
2280000.0 ; 0.7815469
2290000.0 ; 0.6792494
2300000.0 ; 0.5639675
2310000.0 ; 0.4397815
2320000.0 ; 0.3157973
2330000.0 ; 0.2068204
2335000.0 ; 0.1636372
2340000.0 ; 0.1309325
2345000.0 ; 0.1104108
2350000.0 ; 0.1030794
2355000.0 ; 0.1090971
2360000.0 ; 0.1277553
2365000.0 ; 0.1575963
2370000.0 ; 0.1966337
2380000.0 ; 0.2932843
2390000.0 ; 0.4006553
2400000.0 ; 0.5060348
2410000.0 ; 0.6021541
2420000.0 ; 0.6860317
2430000.0 ; 0.7573193
2440000.0 ; 0.8169919
2450000.0 ; 0.866533
2460000.0 ; 0.9075011
2470000.0 ; 0.9413324
2480000.0 ; 0.9692694
2490000.0 ; 0.9923531
2500000.0 ; 1.01144
2510000.0 ; 1.027229
2520000.0 ; 1.04029
2530000.0 ; 1.051085
2540000.0 ; 1.059991
2550000.0 ; 1.067318
2560000.0 ; 1.073319
2570000.0 ; 1.078204
2580000.0 ; 1.082149
2590000.0 ; 1.085298
2600000.0 ; 1.087776
2620000.0 ; 1.091115
2640000.0 ; 1.092833
2660000.0 ; 1.093428
2680000.0 ; 1.093288
2700000.0 ; 1.092724
2720000.0 ; 1.092003
2740000.0 ; 1.091362
2760000.0 ; 1.09103
2780000.0 ; 1.091242
2800000.0 ; 1.092267
2820000.0 ; 1.09445
2840000.0 ; 1.09835
2860000.0 ; 1.105379
2880000.0 ; 1.126932
2881000.0 ; 1.130122
2882000.0 ; 1.134134
2883000.0 ; 1.139383
2884000.0 ; 1.146616
2885000.0 ; 1.157333
2886000.0 ; 1.175044
2887000.0 ; 1.210265
2888000.0 ; 1.3136
2888800.0 ; 1.8508
2888850.0 ; 1.963831
2888900.0 ; 2.105269
2888950.0 ; 2.281268
2889000.0 ; 2.493683
2889050.0 ; 2.728289
2889100.0 ; 2.93167
2889150.0 ; 2.995081
2889200.0 ; 2.814318
2889250.0 ; 2.425
2889300.0 ; 1.991283
2889350.0 ; 1.637585
2889400.0 ; 1.390767
2889450.0 ; 1.229947
2889500.0 ; 1.127754
2889550.0 ; 1.063266
2889600.0 ; 1.022683
2890000.0 ; 0.9678203
2892000.0 ; 1.046912
2894000.0 ; 1.071683
2896000.0 ; 1.083309
2898000.0 ; 1.090304
2900000.0 ; 1.095158
2905000.0 ; 1.103206
2910000.0 ; 1.108837
2915000.0 ; 1.113556
2920000.0 ; 1.117912
2925000.0 ; 1.122158
2930000.0 ; 1.12643
2935000.0 ; 1.130813
2940000.0 ; 1.135367
2945000.0 ; 1.140139
2950000.0 ; 1.145167
2955000.0 ; 1.150489
2960000.0 ; 1.156144
2965000.0 ; 1.162175
2970000.0 ; 1.168634
2975000.0 ; 1.175592
2980000.0 ; 1.183152
2985000.0 ; 1.191496
2990000.0 ; 1.200985
2995000.0 ; 1.212554
3000000.0 ; 1.229785
3001000.0 ; 1.235079
3002000.0 ; 1.241843
3003000.0 ; 1.251192
3004000.0 ; 1.265767
3005000.0 ; 1.2936
3006000.0 ; 1.374763
3006500.0 ; 1.525379
3006600.0 ; 1.592012
3006700.0 ; 1.689419
3006800.0 ; 1.840259
3006900.0 ; 2.088107
3007000.0 ; 2.50075
3007100.0 ; 3.011478
3007200.0 ; 2.857354
3007300.0 ; 2.01175
3007400.0 ; 1.492587
3007500.0 ; 1.278518
3008000.0 ; 1.135065
3010000.0 ; 1.184709
3020000.0 ; 1.238015
3030000.0 ; 1.266123
3040000.0 ; 1.294386
3050000.0 ; 1.325065
3060000.0 ; 1.359016
3070000.0 ; 1.396828
3080000.0 ; 1.439022
3090000.0 ; 1.486107
3100000.0 ; 1.538589
3110000.0 ; 1.596964
3120000.0 ; 1.6617
3130000.0 ; 1.733205
3140000.0 ; 1.811794
3150000.0 ; 1.897638
3160000.0 ; 1.99072
3170000.0 ; 2.090817
3180000.0 ; 2.197591
3190000.0 ; 2.311278
3200000.0 ; 2.43883
3201000.0 ; 2.453925
3202000.0 ; 2.47012
3203000.0 ; 2.487911
3204000.0 ; 2.508116
3205000.0 ; 2.532169
3206000.0 ; 2.562769
3207000.0 ; 2.605489
3208000.0 ; 2.673357
3209000.0 ; 2.802482
3209500.0 ; 2.920899
3210000.0 ; 3.119155
3210500.0 ; 3.478477
3211000.0 ; 4.147329
3211500.0 ; 5.076113
3212000.0 ; 5.104702
3212500.0 ; 4.155738
3213000.0 ; 3.462499
3213500.0 ; 3.104744
3214000.0 ; 2.918833
3215000.0 ; 2.755245
3216000.0 ; 2.694642
3218000.0 ; 2.661863
3220000.0 ; 2.66441
3230000.0 ; 2.754228
3240000.0 ; 2.854768
3250000.0 ; 2.947908
3260000.0 ; 3.030238
3270000.0 ; 3.100009
3280000.0 ; 3.156361
3290000.0 ; 3.199213
3300000.0 ; 3.229161
3310000.0 ; 3.247346
3320000.0 ; 3.255285
3330000.0 ; 3.254699
3340000.0 ; 3.247365
3350000.0 ; 3.234991
3360000.0 ; 3.219138
3370000.0 ; 3.201171
3380000.0 ; 3.182231
3390000.0 ; 3.163239
3400000.0 ; 3.144895
3410000.0 ; 3.127689
3420000.0 ; 3.111925
3430000.0 ; 3.098542
3432000.0 ; 3.096971
3434000.0 ; 3.097251
3436000.0 ; 3.105096
3438000.0 ; 3.247378
3438200.0 ; 3.349155
3438400.0 ; 3.568979
3438600.0 ; 4.097343
3438800.0 ; 5.195732
3439000.0 ; 5.656051
3439200.0 ; 4.850287
3439400.0 ; 4.267518
3439600.0 ; 3.990934
3439800.0 ; 3.872133
3440000.0 ; 3.841066
3440500.0 ; 4.026994
3441000.0 ; 4.685597
3441500.0 ; 5.692681
3442000.0 ; 5.084941
3442500.0 ; 4.081699
3443000.0 ; 3.6215
3443500.0 ; 3.414513
3444000.0 ; 3.308759
3444500.0 ; 3.248209
3445000.0 ; 3.210347
3446000.0 ; 3.167139
3447000.0 ; 3.14396
3448000.0 ; 3.129789
3449000.0 ; 3.120295
3450000.0 ; 3.11349
3460000.0 ; 3.088003
3480000.0 ; 3.075925
3500000.0 ; 3.075438
3520000.0 ; 3.081179
3540000.0 ; 3.090327
3560000.0 ; 3.100174
3580000.0 ; 3.108022
3600000.0 ; 3.11133
3620000.0 ; 3.107954
3630000.0 ; 3.103278
3632000.0 ; 3.102089
3634000.0 ; 3.100815
3636000.0 ; 3.099456
3638000.0 ; 3.098015
3640000.0 ; 3.096505
3640500.0 ; 3.096129
3641000.0 ; 3.095779
3641500.0 ; 3.095577
3642000.0 ; 3.098088
3642500.0 ; 3.095422
3643000.0 ; 3.094206
3644000.0 ; 3.0932
3646000.0 ; 3.091386
3648000.0 ; 3.089515
3650000.0 ; 3.087566
3660000.0 ; 3.076678
3680000.0 ; 3.050476
3700000.0 ; 3.02461
3710000.0 ; 3.017432
3720000.0 ; 3.021927
3730000.0 ; 3.053844
3740000.0 ; 3.157137
3749000.0 ; 3.432904
3751000.0 ; 3.54885
3753000.0 ; 3.699872
3755000.0 ; 3.897271
3757000.0 ; 4.154227
3759000.0 ; 4.482155
3761000.0 ; 4.88003
3763000.0 ; 5.312413
3765000.0 ; 5.684725
3767000.0 ; 5.858872
3769000.0 ; 5.748314
3771000.0 ; 5.403364
3773000.0 ; 4.959752
3775000.0 ; 4.53
3777000.0 ; 4.164955
3779000.0 ; 3.872877
3781000.0 ; 3.644365
3783000.0 ; 3.4661
3785000.0 ; 3.326046
3787000.0 ; 3.214693
3789000.0 ; 3.124907
3791000.0 ; 3.051436
3793000.0 ; 2.990429
3795000.0 ; 2.93905
3797000.0 ; 2.895195
3799000.0 ; 2.857284
3810000.0 ; 2.713416
3820000.0 ; 2.630865
3830000.0 ; 2.568537
3840000.0 ; 2.51719
3850000.0 ; 2.47277
3860000.0 ; 2.433333
3870000.0 ; 2.397893
3880000.0 ; 2.36592
3890000.0 ; 2.337111
3900000.0 ; 2.31126
3910000.0 ; 2.288178
3920000.0 ; 2.267637
3930000.0 ; 2.249314
3940000.0 ; 2.232721
3950000.0 ; 2.217123
3960000.0 ; 2.201402
3970000.0 ; 2.183841
3980000.0 ; 2.161772
3990000.0 ; 2.130996
4000000.0 ; 2.084925
4010000.0 ; 2.013717
4020000.0 ; 1.904924
4030000.0 ; 1.749972
