Incident energy ; 
Incident energy ; 
Incident energy ; σ(E)
1.0E-5 ; 54.19595
1.0625E-5 ; 52.58463
1.125E-5 ; 51.10972
1.1875E-5 ; 49.75302
1.25E-5 ; 48.49955
1.375E-5 ; 46.25453
1.5E-5 ; 44.29684
1.625E-5 ; 42.57009
1.75E-5 ; 41.03221
1.875E-5 ; 39.65117
2.0E-5 ; 38.40204
2.1875E-5 ; 36.73366
2.375E-5 ; 35.26754
2.5625E-5 ; 33.96595
2.75E-5 ; 32.80031
2.9375E-5 ; 31.74854
3.125E-5 ; 30.79329
3.3125E-5 ; 29.92068
3.5E-5 ; 29.11947
3.75E-5 ; 28.1466
4.0E-5 ; 27.26688
4.25E-5 ; 26.4664
4.625E-5 ; 25.39035
5.0E-5 ; 24.43849
5.3125E-5 ; 23.72403
5.625E-5 ; 23.0704
5.9375E-5 ; 22.46947
6.25E-5 ; 21.91454
6.875E-5 ; 20.9214
7.5E-5 ; 20.05627
8.0E-5 ; 19.43918
8.75E-5 ; 18.61576
9.375E-5 ; 18.00733
1.0E-4 ; 17.45759
1.0625E-4 ; 16.95773
1.125E-4 ; 16.50072
1.1875E-4 ; 16.08081
1.25E-4 ; 15.69331
1.375E-4 ; 15.00045
1.5E-4 ; 14.39765
1.625E-4 ; 13.86718
1.75E-4 ; 13.3958
1.875E-4 ; 12.97346
2.0E-4 ; 12.59233
2.1875E-4 ; 12.08471
2.375E-4 ; 11.64013
2.5625E-4 ; 11.24677
2.75E-4 ; 10.89569
2.9375E-4 ; 10.57996
3.125E-4 ; 10.29416
3.3125E-4 ; 10.03395
3.5E-4 ; 9.795829
3.75E-4 ; 9.507792
4.0E-4 ; 9.248474
4.25E-4 ; 9.013538
4.625E-4 ; 8.699425
5.0E-4 ; 8.423358
5.3125E-4 ; 8.217367
5.625E-4 ; 8.029912
5.9375E-4 ; 7.85848
6.25E-4 ; 7.701004
6.875E-4 ; 7.421343
7.5E-4 ; 7.180233
8.0E-4 ; 7.009834
8.75E-4 ; 6.784726
9.375E-4 ; 6.620218
0.001 ; 6.473033
0.0010625 ; 6.340502
0.001125 ; 6.220489
0.0011875 ; 6.111266
0.00125 ; 6.011411
0.001375 ; 5.835294
0.0015 ; 5.684821
0.001625 ; 5.554722
0.00175 ; 5.441094
0.001875 ; 5.340986
0.002 ; 5.252117
0.0021875 ; 5.136071
0.002375 ; 5.036767
0.0025625 ; 4.950845
0.00275 ; 4.87579
0.0029375 ; 4.809679
0.003125 ; 4.75102
0.0033125 ; 4.698633
0.0035 ; 4.651576
0.00375 ; 4.595822
0.004 ; 4.546758
0.00425 ; 4.503262
0.004625 ; 4.44657
0.005 ; 4.398169
0.0053125 ; 4.362944
0.005625 ; 4.331564
0.0059375 ; 4.303437
0.00625 ; 4.278087
0.006875 ; 4.234233
0.0075 ; 4.197633
0.008 ; 4.172448
0.00875 ; 4.140046
0.009375 ; 4.116994
0.01 ; 4.096818
0.010625 ; 4.079013
0.01125 ; 4.063184
0.011875 ; 4.049019
0.0125 ; 4.036271
0.01375 ; 4.014249
0.015 ; 3.995897
0.01625 ; 3.980367
0.0175 ; 3.967056
0.01875 ; 3.955519
0.02 ; 3.945424
0.021325 ; 3.936016
0.02265 ; 3.927708
0.023975 ; 3.920318
0.0253 ; 3.913702
0.02722969 ; 3.905218
0.02915938 ; 3.897857
0.03108907 ; 3.891409
0.03301875 ; 3.885715
0.03494844 ; 3.88065
0.03687813 ; 3.876115
0.0407375 ; 3.868333
0.04305313 ; 3.864333
0.04536875 ; 3.860742
0.05 ; 3.854557
0.0506 ; 3.853838
0.0520875 ; 3.852128
0.053575 ; 3.850513
0.05655 ; 3.847538
0.0625 ; 3.842437
0.06875 ; 3.83803
0.075 ; 3.834357
0.08125 ; 3.831249
0.0875 ; 3.828585
0.09375 ; 3.826276
0.1 ; 3.824255
0.10625 ; 3.822472
0.1125 ; 3.820888
0.11875 ; 3.81947
0.125 ; 3.818193
0.1375 ; 3.815988
0.15 ; 3.814151
0.1625 ; 3.812596
0.175 ; 3.811263
0.1875 ; 3.810108
0.2 ; 3.809097
0.21875 ; 3.807798
0.2375 ; 3.806703
0.25625 ; 3.805769
0.275 ; 3.804961
0.29375 ; 3.804257
0.3125 ; 3.803637
0.33125 ; 3.803087
0.35 ; 3.802596
0.375 ; 3.802018
0.4 ; 3.801512
0.425 ; 3.801066
0.5 ; 3.799995
0.625 ; 3.79878
0.75 ; 3.797969
0.8 ; 3.797716
0.875 ; 3.79739
1.0 ; 3.796956
1.25 ; 3.796347
1.5 ; 3.795941
1.75 ; 3.79565
2.0 ; 3.795433
2.375 ; 3.795191
2.75 ; 3.795015
3.125 ; 3.794881
3.5 ; 3.794776
4.0 ; 3.794666
4.25 ; 3.794621
5.0 ; 3.794511
6.25 ; 3.794386
7.5 ; 3.794302
8.0 ; 3.794274
8.75 ; 3.79424
10.0 ; 3.794194
12.5 ; 3.794126
15.0 ; 3.79408
17.5 ; 3.794045
20.0 ; 3.794018
23.75 ; 3.793985
27.5 ; 3.793959
35.0 ; 3.793918
40.0 ; 3.793896
42.5 ; 3.793885
50.0 ; 3.793857
62.5 ; 3.793817
75.0 ; 3.793781
87.5 ; 3.793747
100.0 ; 3.793714
125.0 ; 3.793652
150.0 ; 3.793592
175.0 ; 3.793533
200.0 ; 3.793475
275.0 ; 3.793304
300.0 ; 3.793247
350.0 ; 3.793133
425.0 ; 3.792964
500.0 ; 3.792796
625.0 ; 3.792515
700.0 ; 3.792348
750.0 ; 3.792235
875.0 ; 3.791955
900.0 ; 3.7919
1000.0 ; 3.791676
1100.0 ; 3.791453
1250.0 ; 3.791119
1500.0 ; 3.790562
1750.0 ; 3.790004
2000.0 ; 3.789447
2750.0 ; 3.787776
3500.0 ; 3.786105
4000.0 ; 3.784991
4250.0 ; 3.784434
5000.0 ; 3.782763
6250.0 ; 3.779993
7500.0 ; 3.777224
8750.0 ; 3.774453
10000.0 ; 3.771683
12500.0 ; 3.766195
15000.0 ; 3.760705
17500.0 ; 3.755216
20000.0 ; 3.749726
22500.0 ; 3.744307
25000.0 ; 3.738887
27500.0 ; 3.733468
30000.0 ; 3.728048
32500.0 ; 3.7227
35000.0 ; 3.717353
40000.0 ; 3.706655
45000.0 ; 3.696106
50000.0 ; 3.685556
55000.0 ; 3.675159
60000.0 ; 3.664762
65000.0 ; 3.654523
70000.0 ; 3.644284
75000.0 ; 3.634211
80000.0 ; 3.624139
90000.0 ; 3.604342
95000.0 ; 3.594629
100000.0 ; 3.584916
110000.0 ; 3.566096
115000.0 ; 3.556687
120000.0 ; 3.547278
130000.0 ; 3.529376
140000.0 ; 3.511477
150000.0 ; 3.494679
160000.0 ; 3.477884
180000.0 ; 3.447031
200000.0 ; 3.419703
220000.0 ; 3.397094
240000.0 ; 3.381067
250000.0 ; 3.377848
260000.0 ; 3.374645
280000.0 ; 3.382964
300000.0 ; 3.415258
320000.0 ; 3.489341
340000.0 ; 3.642864
360000.0 ; 3.965387
370000.0 ; 4.334901
380000.0 ; 4.705207
390000.0 ; 5.438191
395000.0 ; 5.976583
400000.0 ; 6.686016
405000.0 ; 7.626055
410000.0 ; 8.867
415000.0 ; 10.46708
420000.0 ; 12.40476
425000.0 ; 14.44602
430000.0 ; 16.0355
434000.0 ; 16.52113
435000.0 ; 16.50348
440000.0 ; 15.63924
445000.0 ; 13.91446
450000.0 ; 11.98009
455000.0 ; 10.23797
460000.0 ; 8.816608
465000.0 ; 7.703722
470000.0 ; 6.842904
475000.0 ; 6.175592
480000.0 ; 5.653891
490000.0 ; 5.035265
500000.0 ; 4.417824
520000.0 ; 3.831317
540000.0 ; 3.503627
550000.0 ; 3.400192
560000.0 ; 3.29691
580000.0 ; 3.154162
600000.0 ; 3.048637
620000.0 ; 2.966537
640000.0 ; 2.90024
650000.0 ; 2.872782
660000.0 ; 2.845342
680000.0 ; 2.799272
700000.0 ; 2.760597
720000.0 ; 2.728687
740000.0 ; 2.703585
750000.0 ; 2.694787
760000.0 ; 2.686006
780000.0 ; 2.677497
800000.0 ; 2.680771
810000.0 ; 2.688148
820000.0 ; 2.700377
830000.0 ; 2.71851
840000.0 ; 2.743921
850000.0 ; 2.778419
860000.0 ; 2.824407
870000.0 ; 2.885095
880000.0 ; 2.964835
890000.0 ; 3.069558
900000.0 ; 3.207406
910000.0 ; 3.389582
920000.0 ; 3.631376
930000.0 ; 3.953134
940000.0 ; 4.380216
950000.0 ; 4.939406
960000.0 ; 5.646072
970000.0 ; 6.473888
980000.0 ; 7.30894
990000.0 ; 7.933804
1000000.0 ; 8.125872
1010000.0 ; 7.833828
1020000.0 ; 7.214422
1030000.0 ; 6.483998
1040000.0 ; 5.789844
1050000.0 ; 5.193346
1060000.0 ; 4.703828
1070000.0 ; 4.309152
1080000.0 ; 3.991846
1090000.0 ; 3.735536
1100000.0 ; 3.526768
1110000.0 ; 3.355072
1120000.0 ; 3.212482
1130000.0 ; 3.093006
1140000.0 ; 2.99215
1150000.0 ; 2.90657
1160000.0 ; 2.833808
1170000.0 ; 2.772119
1180000.0 ; 2.720372
1190000.0 ; 2.678016
1200000.0 ; 2.645116
1210000.0 ; 2.622515
1220000.0 ; 2.612142
1230000.0 ; 2.61765
1240000.0 ; 2.645633
1250000.0 ; 2.708069
1260000.0 ; 2.827595
1265000.0 ; 2.921291
1270000.0 ; 3.048668
1275000.0 ; 3.22252
1280000.0 ; 3.460839
1285000.0 ; 3.787779
1290000.0 ; 4.231764
1295000.0 ; 4.814002
1300000.0 ; 5.514498
1305000.0 ; 6.21238
1307500.0 ; 6.480813
1310000.0 ; 6.654155
1313000.0 ; 6.714684
1316500.0 ; 6.545686
1320000.0 ; 6.198185
1330000.0 ; 4.918099
1335000.0 ; 4.378518
1340000.0 ; 3.950937
1345000.0 ; 3.619403
1350000.0 ; 3.362634
1360000.0 ; 3.002627
1370000.0 ; 2.769857
1380000.0 ; 2.610262
1390000.0 ; 2.49484
1400000.0 ; 2.407452
1410000.0 ; 2.338672
1420000.0 ; 2.282737
1430000.0 ; 2.235977
1440000.0 ; 2.195963
1450000.0 ; 2.161042
1460000.0 ; 2.130052
1470000.0 ; 2.102158
1480000.0 ; 2.076745
1490000.0 ; 2.053357
1500000.0 ; 2.031643
1510000.0 ; 2.011336
1520000.0 ; 1.99223
1530000.0 ; 1.974165
1540000.0 ; 1.95702
1550000.0 ; 1.940713
1560000.0 ; 1.925198
1570000.0 ; 1.910481
1580000.0 ; 1.896644
1590000.0 ; 1.883915
1600000.0 ; 1.872837
1602000.0 ; 1.870913
1610000.0 ; 1.864794
1620000.0 ; 1.863871
1630000.0 ; 1.886312
1635000.0 ; 1.929691
1637500.0 ; 1.97425
1640000.0 ; 2.053215
1641063.0 ; 2.108236
1641594.0 ; 2.144877
1641860.0 ; 2.163322
1642125.0 ; 2.185141
1643188.0 ; 2.296242
1643719.0 ; 2.370742
1643985.0 ; 2.409647
1644250.0 ; 2.463221
1644782.0 ; 2.576117
1645313.0 ; 2.728128
1645844.0 ; 2.907598
1645977.0 ; 2.955383
1646110.0 ; 3.014703
1646375.0 ; 3.145024
1646907.0 ; 3.470948
1647438.0 ; 3.911498
1647969.0 ; 4.513052
1648102.0 ; 4.701398
1648235.0 ; 4.905807
1648500.0 ; 5.327563
1648875.0 ; 6.056419
1649250.0 ; 6.871753
1649625.0 ; 7.695738
1649813.0 ; 8.080254
1650000.0 ; 8.430071
1650125.0 ; 8.575966
1650250.0 ; 8.692056
1650500.0 ; 8.87316
1650969.0 ; 8.550055
1651438.0 ; 7.683749
1651907.0 ; 6.639288
1652141.0 ; 6.143213
1652375.0 ; 5.672662
1652844.0 ; 4.874966
1653079.0 ; 4.534728
1653313.0 ; 4.252665
1653548.0 ; 3.989229
1653782.0 ; 3.776672
1653899.0 ; 3.672886
1654016.0 ; 3.578884
1654250.0 ; 3.434059
1654719.0 ; 3.156963
1654954.0 ; 3.020904
1655188.0 ; 2.924954
1655657.0 ; 2.760238
1655891.0 ; 2.678345
1656008.0 ; 2.641286
1656125.0 ; 2.612274
1656594.0 ; 2.508241
1657063.0 ; 2.409617
1658000.0 ; 2.27226
1659000.0 ; 2.169205
1660000.0 ; 2.094757
1662500.0 ; 1.979749
1665000.0 ; 1.914751
1670000.0 ; 1.847919
1680000.0 ; 1.79267
1681250.0 ; 1.788589
1681875.0 ; 1.78668
1682032.0 ; 1.786213
1682188.0 ; 1.785774
1682500.0 ; 1.784906
1683750.0 ; 1.781664
1683907.0 ; 1.781278
1683985.0 ; 1.781094
1684063.0 ; 1.780925
1684375.0 ; 1.780302
1685000.0 ; 1.779087
1685513.0 ; 1.778485
1685769.0 ; 1.778197
1685897.0 ; 1.778059
1685961.0 ; 1.778014
1686025.0 ; 1.778014
1686154.0 ; 1.778139
1686282.0 ; 1.778304
1686538.0 ; 1.778637
1686794.0 ; 1.778971
1686922.0 ; 1.779199
1686986.0 ; 1.779481
1687050.0 ; 1.779999
1687115.0 ; 1.780724
1687179.0 ; 1.781519
1687307.0 ; 1.783146
1687563.0 ; 1.786405
1687819.0 ; 1.789709
1687851.0 ; 1.790232
1687883.0 ; 1.790964
1687915.0 ; 1.792147
1687931.0 ; 1.793016
1687947.0 ; 1.794136
1687963.0 ; 1.795557
1687979.0 ; 1.797323
1687995.0 ; 1.799463
1688011.0 ; 1.801993
1688027.0 ; 1.804908
1688043.0 ; 1.808189
1688075.0 ; 1.815692
1688108.0 ; 1.824399
1688140.0 ; 1.833395
1688204.0 ; 1.852023
1688332.0 ; 1.889678
1688588.0 ; 1.965025
1688652.0 ; 1.983927
1688684.0 ; 1.993493
1688716.0 ; 2.00328
1688732.0 ; 2.008324
1688748.0 ; 2.013518
1688764.0 ; 2.018918
1688780.0 ; 2.024592
1688796.0 ; 2.030633
1688812.0 ; 2.037163
1688828.0 ; 2.044354
1688844.0 ; 2.052436
1688852.0 ; 2.056906
1688860.0 ; 2.061725
1688868.0 ; 2.066947
1688876.0 ; 2.072636
1688884.0 ; 2.078861
1688892.0 ; 2.085699
1688900.0 ; 2.093235
1688908.0 ; 2.101558
1688916.0 ; 2.110766
1688924.0 ; 2.120955
1688940.0 ; 2.144684
1688956.0 ; 2.173532
1688972.0 ; 2.208201
1688988.0 ; 2.24924
1689004.0 ; 2.297
1689036.0 ; 2.413261
1689052.0 ; 2.481948
1689068.0 ; 2.558087
1689084.0 ; 2.642527
1689100.0 ; 2.736777
1689114.0 ; 2.829035
1689128.0 ; 2.932425
1689142.0 ; 3.049114
1689155.0 ; 3.171289
1689183.0 ; 3.486297
1689210.0 ; 3.859629
1689238.0 ; 4.30213
1689252.0 ; 4.531194
1689265.0 ; 4.739071
1689279.0 ; 4.948571
1689293.0 ; 5.133141
1689307.0 ; 5.282817
1689320.0 ; 5.382893
1689330.0 ; 5.43081
1689340.0 ; 5.45159
1689354.0 ; 5.433686
1689368.0 ; 5.361686
1689382.0 ; 5.239365
1689395.0 ; 5.086428
1689409.0 ; 4.887453
1689423.0 ; 4.662572
1689437.0 ; 4.422036
1689450.0 ; 4.193258
1689464.0 ; 3.949283
1689478.0 ; 3.714856
1689505.0 ; 3.308428
1689533.0 ; 2.966847
1689560.0 ; 2.716289
1689588.0 ; 2.527638
1689615.0 ; 2.399649
1689643.0 ; 2.30726
1689670.0 ; 2.244286
1689780.0 ; 2.092562
1689890.0 ; 1.973207
1689918.0 ; 1.945282
1689945.0 ; 1.920635
1689973.0 ; 1.898409
1690000.0 ; 1.880914
1690020.0 ; 1.870629
1690040.0 ; 1.862543
1690060.0 ; 1.856429
1690079.0 ; 1.852146
1690099.0 ; 1.848887
1690118.0 ; 1.846658
1690157.0 ; 1.843658
1690313.0 ; 1.836495
1690625.0 ; 1.823074
1690782.0 ; 1.81632
1690860.0 ; 1.812965
1690938.0 ; 1.809617
1690977.0 ; 1.807951
1691016.0 ; 1.806292
1691055.0 ; 1.804642
1691094.0 ; 1.802998
1691250.0 ; 1.796442
1691875.0 ; 1.770245
1691954.0 ; 1.76733
1692032.0 ; 1.765437
1692110.0 ; 1.764612
1692188.0 ; 1.76424
1692500.0 ; 1.763058
1693750.0 ; 1.758343
1693907.0 ; 1.757756
1693985.0 ; 1.757489
1694063.0 ; 1.757263
1694375.0 ; 1.756517
1695000.0 ; 1.755045
1695625.0 ; 1.753573
1695938.0 ; 1.752838
1696250.0 ; 1.752185
1697500.0 ; 1.749661
1698125.0 ; 1.748419
1698750.0 ; 1.74725
1700000.0 ; 1.744916
1705000.0 ; 1.736269
1710000.0 ; 1.728179
1720000.0 ; 1.712964
1730000.0 ; 1.698356
1740000.0 ; 1.683898
1750000.0 ; 1.669265
1760000.0 ; 1.654146
1770000.0 ; 1.638172
1780000.0 ; 1.620841
1790000.0 ; 1.601451
1800000.0 ; 1.579247
1810000.0 ; 1.555952
1814000.0 ; 1.550371
1820000.0 ; 1.571425
1822500.0 ; 1.618889
1823750.0 ; 1.665448
1825000.0 ; 1.740392
1826250.0 ; 1.870298
1826875.0 ; 1.960406
1827500.0 ; 2.088556
1828125.0 ; 2.241121
1828750.0 ; 2.451432
1829063.0 ; 2.568293
1829375.0 ; 2.721712
1830000.0 ; 3.036708
1831650.0 ; 4.122848
1832063.0 ; 4.378742
1832475.0 ; 4.538283
1832888.0 ; 4.694923
1833300.0 ; 4.754925
1834000.0 ; 4.655276
1835500.0 ; 4.064313
1837000.0 ; 3.453925
1837750.0 ; 3.217742
1838500.0 ; 3.019477
1839250.0 ; 2.852793
1840000.0 ; 2.715036
1841250.0 ; 2.541392
1842500.0 ; 2.411061
1845000.0 ; 2.232712
1847500.0 ; 2.123381
1850000.0 ; 2.050603
1855000.0 ; 1.968049
1860000.0 ; 1.931816
1862000.0 ; 1.925974
1870000.0 ; 1.943611
1875000.0 ; 1.991352
1880000.0 ; 2.075726
1884000.0 ; 2.181921
1887000.0 ; 2.292517
1890000.0 ; 2.430243
1900000.0 ; 3.035675
1903000.0 ; 3.146372
1906000.0 ; 3.16687
1908000.0 ; 3.118872
1910000.0 ; 3.034011
1915000.0 ; 2.745853
1920000.0 ; 2.466387
1925000.0 ; 2.251726
1930000.0 ; 2.094486
1935000.0 ; 1.982355
1940000.0 ; 1.899041
1950000.0 ; 1.788108
1960000.0 ; 1.717973
1970000.0 ; 1.669301
1980000.0 ; 1.632858
1990000.0 ; 1.603864
2000000.0 ; 1.579654
2020000.0 ; 1.539795
2040000.0 ; 1.506288
2060000.0 ; 1.475836
2080000.0 ; 1.446574
2100000.0 ; 1.417189
2120000.0 ; 1.386527
2140000.0 ; 1.353343
2160000.0 ; 1.316085
2180000.0 ; 1.272617
2200000.0 ; 1.21983
2210000.0 ; 1.188564
2220000.0 ; 1.153047
2230000.0 ; 1.112309
2240000.0 ; 1.065164
2250000.0 ; 1.010194
2260000.0 ; 0.9457579
2270000.0 ; 0.8700945
2280000.0 ; 0.7815776
2290000.0 ; 0.6792802
2300000.0 ; 0.5639983
2310000.0 ; 0.4398123
2320000.0 ; 0.3158282
2330000.0 ; 0.2068513
2335000.0 ; 0.1636682
2340000.0 ; 0.1309635
2345000.0 ; 0.1104418
2350000.0 ; 0.1031104
2355000.0 ; 0.1091281
2360000.0 ; 0.1277864
2365000.0 ; 0.1576274
2370000.0 ; 0.1966648
2380000.0 ; 0.2933154
2390000.0 ; 0.4006865
2400000.0 ; 0.506066
2410000.0 ; 0.6021854
2420000.0 ; 0.686063
2430000.0 ; 0.7573507
2440000.0 ; 0.8170233
2450000.0 ; 0.8665645
2460000.0 ; 0.9075326
2470000.0 ; 0.941364
2480000.0 ; 0.969301
2490000.0 ; 0.9923848
2500000.0 ; 1.011472
2510000.0 ; 1.027261
2520000.0 ; 1.040322
2530000.0 ; 1.051117
2540000.0 ; 1.060023
2550000.0 ; 1.06735
2560000.0 ; 1.073351
2570000.0 ; 1.078236
2580000.0 ; 1.082181
2590000.0 ; 1.08533
2600000.0 ; 1.087808
2620000.0 ; 1.091147
2640000.0 ; 1.092866
2660000.0 ; 1.093461
2680000.0 ; 1.093321
2700000.0 ; 1.092757
2720000.0 ; 1.092036
2740000.0 ; 1.091395
2760000.0 ; 1.091063
2780000.0 ; 1.091275
2800000.0 ; 1.092301
2820000.0 ; 1.094484
2840000.0 ; 1.098384
2860000.0 ; 1.105413
2880000.0 ; 1.126966
2881000.0 ; 1.130156
2882000.0 ; 1.134168
2883000.0 ; 1.139417
2884000.0 ; 1.14665
2885000.0 ; 1.157368
2886000.0 ; 1.175079
2887000.0 ; 1.2103
2888000.0 ; 1.313635
2888800.0 ; 1.850835
2888850.0 ; 1.963866
2888900.0 ; 2.105304
2888950.0 ; 2.281303
2889000.0 ; 2.493718
2889050.0 ; 2.728324
2889100.0 ; 2.931705
2889150.0 ; 2.995116
2889200.0 ; 2.814353
2889250.0 ; 2.425035
2889300.0 ; 1.991318
2889350.0 ; 1.63762
2889400.0 ; 1.390802
2889450.0 ; 1.229982
2889500.0 ; 1.127789
2889550.0 ; 1.063301
2889600.0 ; 1.022718
2890000.0 ; 0.9678549
2892000.0 ; 1.046947
2894000.0 ; 1.071718
2896000.0 ; 1.083344
2898000.0 ; 1.090339
2900000.0 ; 1.095193
2905000.0 ; 1.103241
2910000.0 ; 1.108872
2915000.0 ; 1.113591
2920000.0 ; 1.117947
2925000.0 ; 1.122193
2930000.0 ; 1.126465
2935000.0 ; 1.130849
2940000.0 ; 1.135403
2945000.0 ; 1.140175
2950000.0 ; 1.145203
2955000.0 ; 1.150525
2960000.0 ; 1.156181
2965000.0 ; 1.162212
2970000.0 ; 1.168671
2975000.0 ; 1.175629
2980000.0 ; 1.18319
2985000.0 ; 1.191534
2990000.0 ; 1.201024
2995000.0 ; 1.212593
3000000.0 ; 1.229825
3001000.0 ; 1.235119
3002000.0 ; 1.241883
3003000.0 ; 1.251232
3004000.0 ; 1.265807
3005000.0 ; 1.293641
3006000.0 ; 1.374804
3006500.0 ; 1.525421
3006600.0 ; 1.592054
3006700.0 ; 1.689461
3006800.0 ; 1.840301
3006900.0 ; 2.088149
3007000.0 ; 2.500792
3007100.0 ; 3.011519
3007200.0 ; 2.857391
3007300.0 ; 2.011786
3007400.0 ; 1.492624
3007500.0 ; 1.278556
3008000.0 ; 1.135104
3010000.0 ; 1.184749
3020000.0 ; 1.238057
3030000.0 ; 1.266167
3040000.0 ; 1.294432
3050000.0 ; 1.325114
3060000.0 ; 1.359069
3070000.0 ; 1.396885
3080000.0 ; 1.439084
3090000.0 ; 1.486176
3100000.0 ; 1.538666
3110000.0 ; 1.59705
3120000.0 ; 1.661798
3130000.0 ; 1.733317
3140000.0 ; 1.811923
3150000.0 ; 1.897787
3160000.0 ; 1.990892
3170000.0 ; 2.091017
3180000.0 ; 2.197823
3190000.0 ; 2.311548
3200000.0 ; 2.439147
3201000.0 ; 2.454248
3202000.0 ; 2.470449
3203000.0 ; 2.488248
3204000.0 ; 2.508461
3205000.0 ; 2.532525
3206000.0 ; 2.563139
3207000.0 ; 2.60588
3208000.0 ; 2.673782
3209000.0 ; 2.802976
3209500.0 ; 2.921458
3210000.0 ; 3.119825
3210500.0 ; 3.479353
3211000.0 ; 4.148597
3211500.0 ; 5.077945
3212000.0 ; 5.106592
3212500.0 ; 4.157087
3213000.0 ; 3.463437
3213500.0 ; 3.105464
3214000.0 ; 2.919438
3215000.0 ; 2.755745
3216000.0 ; 2.6951
3218000.0 ; 2.662293
3220000.0 ; 2.664836
3230000.0 ; 2.754693
3240000.0 ; 2.855288
3250000.0 ; 2.948487
3260000.0 ; 3.030877
3270000.0 ; 3.100709
3280000.0 ; 3.157122
3290000.0 ; 3.200033
3300000.0 ; 3.230038
3310000.0 ; 3.248277
3320000.0 ; 3.256267
3330000.0 ; 3.255729
3340000.0 ; 3.248441
3350000.0 ; 3.23611
3360000.0 ; 3.220298
3370000.0 ; 3.20237
3380000.0 ; 3.183468
3390000.0 ; 3.164513
3400000.0 ; 3.146206
3410000.0 ; 3.129039
3420000.0 ; 3.113318
3430000.0 ; 3.100009
3432000.0 ; 3.098476
3434000.0 ; 3.098836
3436000.0 ; 3.106944
3438000.0 ; 3.252369
3438200.0 ; 3.35605
3438400.0 ; 3.579637
3438600.0 ; 4.116089
3438800.0 ; 5.228608
3439000.0 ; 5.68984
3439200.0 ; 4.869943
3439400.0 ; 4.278707
3439600.0 ; 3.998219
3439800.0 ; 3.877496
3440000.0 ; 3.845403
3440500.0 ; 4.0304
3441000.0 ; 4.689248
3441500.0 ; 5.69718
3442000.0 ; 5.088727
3442500.0 ; 4.084385
3443000.0 ; 3.623664
3443500.0 ; 3.416432
3444000.0 ; 3.310546
3444500.0 ; 3.249918
3445000.0 ; 3.212006
3446000.0 ; 3.16874
3447000.0 ; 3.145531
3448000.0 ; 3.131342
3449000.0 ; 3.121838
3450000.0 ; 3.115027
3460000.0 ; 3.089549
3480000.0 ; 3.077552
3500000.0 ; 3.077162
3520000.0 ; 3.083014
3540000.0 ; 3.092289
3560000.0 ; 3.102282
3580000.0 ; 3.110299
3600000.0 ; 3.113803
3620000.0 ; 3.110657
3630000.0 ; 3.106121
3632000.0 ; 3.104967
3634000.0 ; 3.103734
3636000.0 ; 3.102433
3638000.0 ; 3.101105
3640000.0 ; 3.100047
3640500.0 ; 3.100081
3641000.0 ; 3.100765
3641500.0 ; 3.104662
3642000.0 ; 3.165796
3642500.0 ; 3.118058
3643000.0 ; 3.100935
3644000.0 ; 3.097026
3646000.0 ; 3.094627
3648000.0 ; 3.09268
3650000.0 ; 3.090726
3660000.0 ; 3.079964
3680000.0 ; 3.054123
3700000.0 ; 3.028695
3710000.0 ; 3.021769
3720000.0 ; 3.026543
3730000.0 ; 3.058774
3740000.0 ; 3.162432
3749000.0 ; 3.438614
3751000.0 ; 3.554674
3753000.0 ; 3.705823
3755000.0 ; 3.903365
3757000.0 ; 4.160487
3759000.0 ; 4.488606
3761000.0 ; 4.886697
3763000.0 ; 5.319312
3765000.0 ; 5.69184
3767000.0 ; 5.866142
3769000.0 ; 5.755646
3771000.0 ; 5.410681
3773000.0 ; 4.96702
3775000.0 ; 4.537223
3777000.0 ; 4.172155
3779000.0 ; 3.88008
3781000.0 ; 3.651592
3783000.0 ; 3.473371
3785000.0 ; 3.333375
3787000.0 ; 3.222092
3789000.0 ; 3.132385
3791000.0 ; 3.059
3793000.0 ; 2.998086
3795000.0 ; 2.946806
3797000.0 ; 2.903054
3799000.0 ; 2.865251
3810000.0 ; 2.722044
3820000.0 ; 2.640181
3830000.0 ; 2.578626
3840000.0 ; 2.528142
3850000.0 ; 2.484685
3860000.0 ; 2.446322
3870000.0 ; 2.412081
3880000.0 ; 2.381446
3890000.0 ; 2.354135
3900000.0 ; 2.329961
3910000.0 ; 2.30876
3920000.0 ; 2.290336
3930000.0 ; 2.274403
3940000.0 ; 2.260522
3950000.0 ; 2.248023
3960000.0 ; 2.235876
3970000.0 ; 2.222489
3980000.0 ; 2.205366
3990000.0 ; 2.180542
4000000.0 ; 2.141707
4010000.0 ; 2.079244
4020000.0 ; 1.980542
